GEO NO
MFR  30
IFR  1
CHT FRE  Y
GO
              APERTURE STOP
              SEMI-DIAMETER =    15.702464
                (Based on the maximum reference ray height at the stop.)




    X and Y focal lengths for each field angle

       X        0.997246E+02        0.100714E+03        0.101600E+03
       Y        0.997246E+02        0.102716E+03        0.105374E+03


    X and Y F-numbers for each field angle

       X            1.994492            2.014282            2.032002
       Y            1.994492            2.650746            3.512466


    Reference sphere radius for each field angle

                0.114244E+03        0.117833E+03        0.121605E+03




    Relative execution time  =   2.27 UNITS





         POSITION  1         DIFFRACTION MTF                          17-Dec-15


           Double Gauss F/2 -  Available Glasses
                                                                WAVELENGTH   WEIGHT  NO. OF RAYS
      FIELD 1 (ANG) = (  0.00,  0.00) DEG, ( 0.00, 0.00) MAX     656.3 NM       1      1544
      RELATIVE ILLUMINATION = 100.0 PER CENT                     587.6 NM       1      1936
      ILLUMINATION (UNIT BRIGHTNESS) = 0.197669                  486.1 NM       1      2844
      DISTORTION =   0.00 PER CENT


     DIFFRACTION LIMIT    FOCUS POSITION
      Formula  Actual      0.00000
 L/MM f/2.000 RAD  TAN    RAD  TAN
 ---- ----------------   ---------
    0 .999   .999        .999
    1 .999   .999        .996
    2 .997   .997        .988
    3 .996   .996        .975
    4 .994   .994        .957
    5 .993   .993        .936
    6 .991   .991        .910
    7 .990   .990        .881
    8 .988   .988        .849
    9 .987   .987        .815
   10 .985   .985        .778
   11 .984   .984        .739
   12 .982   .982        .699
   13 .981   .981        .658
   14 .979   .979        .617
   15 .978   .978        .576
   16 .977   .977        .535
   17 .975   .975        .495
   18 .974   .974        .461
   19 .972   .972        .425
   20 .971   .971        .390
   21 .969   .969        .356
   22 .968   .968        .325
   23 .966   .966        .295
   24 .965   .965        .268
   25 .963   .963        .243
   26 .962   .962        .220
   27 .960   .960        .200
   28 .959   .959        .181
   29 .957   .958        .165
   30 .956   .956        .150

         POSITION  1         DIFFRACTION MTF                          17-Dec-15


           Double Gauss F/2 -  Available Glasses
                                                                WAVELENGTH   WEIGHT  NO. OF RAYS
      FIELD 2 (ANG) = (  0.00, 10.00) DEG, ( 0.00, 0.71) MAX     656.3 NM       1      1140
      RELATIVE ILLUMINATION =  73.6 PER CENT                     587.6 NM       1      1424
      ILLUMINATION (UNIT BRIGHTNESS) = 0.145581                  486.1 NM       1      2096
      DISTORTION =  -0.50 PER CENT


     DIFFRACTION LIMIT    FOCUS POSITION
      Formula  Actual      0.00000
 L/MM f/2.000 RAD  TAN    RAD  TAN
 ---- ----------------   ---------
    0 .999   .999 .999   .999 .999
    1 .999   .999 .998   .996 .996
    2 .997   .997 .996   .987 .986
    3 .996   .996 .994   .974 .972
    4 .994   .994 .992   .956 .954
    5 .993   .993 .990   .935 .931
    6 .991   .991 .988   .910 .905
    7 .990   .990 .986   .882 .875
    8 .988   .988 .984   .853 .843
    9 .987   .987 .982   .822 .808
   10 .985   .985 .980   .789 .772
   11 .984   .984 .978   .756 .735
   12 .982   .982 .976   .723 .696
   13 .981   .981 .974   .690 .658
   14 .979   .979 .972   .657 .619
   15 .978   .978 .970   .624 .582
   16 .977   .976 .968   .593 .545
   17 .975   .975 .966   .563 .509
   18 .974   .973 .964   .540 .487
   19 .972   .971 .962   .511 .453
   20 .971   .970 .960   .483 .420
   21 .969   .968 .958   .458 .389
   22 .968   .967 .956   .435 .359
   23 .966   .965 .954   .413 .330
   24 .965   .964 .952   .394 .303
   25 .963   .962 .950   .377 .278
   26 .962   .961 .948   .363 .255
   27 .960   .959 .946   .350 .233
   28 .959   .958 .944   .339 .213
   29 .957   .956 .942   .329 .195
   30 .956   .955 .940   .322 .178

         POSITION  1         DIFFRACTION MTF                          17-Dec-15


           Double Gauss F/2 -  Available Glasses
                                                                WAVELENGTH   WEIGHT  NO. OF RAYS
      FIELD 3 (ANG) = (  0.00, 14.00) DEG, ( 0.00, 1.00) MAX     656.3 NM       1       810
      RELATIVE ILLUMINATION =  51.7 PER CENT                     587.6 NM       1       998
      ILLUMINATION (UNIT BRIGHTNESS) = 0.102284                  486.1 NM       1      1462
      DISTORTION =  -1.06 PER CENT


     DIFFRACTION LIMIT    FOCUS POSITION
      Formula  Actual      0.00000
 L/MM f/2.000 RAD  TAN    RAD  TAN
 ---- ----------------   ---------
    0 .999   .999 .999   .999 .999
    1 .999   .998 .997   .991 .997
    2 .997   .997 .994   .967 .992
    3 .996   .995 .992   .930 .985
    4 .994   .994 .989   .881 .978
    5 .993   .992 .986   .823 .969
    6 .991   .990 .983   .758 .959
    7 .990   .989 .981   .688 .948
    8 .988   .987 .978   .615 .936
    9 .987   .985 .975   .540 .924
   10 .985   .984 .972   .465 .910
   11 .984   .982 .970   .393 .896
   12 .982   .981 .967   .323 .882
   13 .981   .979 .964   .258 .867
   14 .979   .977 .961   .198 .852
   15 .978   .976 .959   .145 .836
   16 .977   .974 .956   .100 .820
   17 .975   .973 .953   .062 .804
   18 .974   .971 .950   .031 .795
   19 .972   .969 .947   .009 .778
   20 .971   .968 .944   .006 .761
   21 .969   .966 .942   .015 .744
   22 .968   .964 .939   .017 .727
   23 .966   .963 .936   .015 .710
   24 .965   .961 .933   .009 .694
   25 .963   .960 .931   .001 .678
   26 .962   .958 .928   .010 .662
   27 .960   .956 .925   .022 .647
   28 .959   .955 .923   .033 .631
   29 .957   .953 .920   .043 .616
   30 .956   .952 .917   .051 .602
